NAME SLOT_END_FEED_8_Vpol
MAKE EFTX
FREQUENCY 635.00 MHz
H_WIDTH 0.00
V_WIDTH 6.30
FRONT_TO_BACK 25.00
GAIN 10.80 dBd
TILT MECHANICAL
HORIZONTAL 360
0	0.00
1	0.00
2	0.00
3	0.00
4	0.01
5	0.01
6	0.01
7	0.02
8	0.03
9	0.03
10	0.04
11	0.05
12	0.06
13	0.07
14	0.08
15	0.10
16	0.11
17	0.13
18	0.14
19	0.16
20	0.18
21	0.19
22	0.21
23	0.23
24	0.25
25	0.28
26	0.30
27	0.32
28	0.35
29	0.37
30	0.40
31	0.42
32	0.45
33	0.48
34	0.51
35	0.54
36	0.57
37	0.60
38	0.63
39	0.67
40	0.70
41	0.74
42	0.77
43	0.81
44	0.85
45	0.88
46	0.92
47	0.96
48	1.00
49	1.05
50	1.09
51	1.13
52	1.18
53	1.22
54	1.27
55	1.31
56	1.36
57	1.41
58	1.45
59	1.50
60	1.55
61	1.60
62	1.65
63	1.70
64	1.76
65	1.81
66	1.86
67	1.91
68	1.96
69	2.02
70	2.07
71	2.12
72	2.17
73	2.22
74	2.28
75	2.33
76	2.38
77	2.43
78	2.48
79	2.53
80	2.57
81	2.62
82	2.67
83	2.71
84	2.76
85	2.80
86	2.84
87	2.88
88	2.92
89	2.96
90	3.00
91	3.03
92	3.06
93	3.10
94	3.13
95	3.15
96	3.18
97	3.20
98	3.23
99	3.25
100	3.26
101	3.28
102	3.30
103	3.31
104	3.32
105	3.33
106	3.33
107	3.34
108	3.34
109	3.34
110	3.34
111	3.34
112	3.34
113	3.33
114	3.33
115	3.32
116	3.31
117	3.30
118	3.29
119	3.28
120	3.26
121	3.25
122	3.23
123	3.21
124	3.20
125	3.18
126	3.16
127	3.14
128	3.12
129	3.10
130	3.08
131	3.06
132	3.03
133	3.01
134	2.99
135	2.97
136	2.94
137	2.92
138	2.90
139	2.88
140	2.85
141	2.83
142	2.81
143	2.79
144	2.77
145	2.74
146	2.72
147	2.70
148	2.68
149	2.66
150	2.64
151	2.62
152	2.60
153	2.59
154	2.57
155	2.55
156	2.53
157	2.52
158	2.50
159	2.49
160	2.47
161	2.46
162	2.44
163	2.43
164	2.42
165	2.41
166	2.40
167	2.39
168	2.38
169	2.37
170	2.36
171	2.35
172	2.35
173	2.34
174	2.34
175	2.33
176	2.33
177	2.33
178	2.32
179	2.32
180	2.32
181	2.32
182	2.32
183	2.33
184	2.33
185	2.33
186	2.34
187	2.34
188	2.35
189	2.36
190	2.37
191	2.38
192	2.39
193	2.40
194	2.41
195	2.42
196	2.44
197	2.45
198	2.47
199	2.49
200	2.50
201	2.52
202	2.54
203	2.56
204	2.58
205	2.60
206	2.62
207	2.65
208	2.67
209	2.69
210	2.72
211	2.74
212	2.77
213	2.79
214	2.82
215	2.85
216	2.87
217	2.90
218	2.93
219	2.95
220	2.98
221	3.00
222	3.03
223	3.06
224	3.08
225	3.11
226	3.13
227	3.16
228	3.18
229	3.20
230	3.22
231	3.24
232	3.26
233	3.28
234	3.30
235	3.32
236	3.33
237	3.35
238	3.36
239	3.37
240	3.38
241	3.39
242	3.40
243	3.41
244	3.41
245	3.42
246	3.42
247	3.42
248	3.42
249	3.41
250	3.41
251	3.40
252	3.39
253	3.38
254	3.37
255	3.36
256	3.34
257	3.32
258	3.31
259	3.28
260	3.26
261	3.24
262	3.21
263	3.19
264	3.16
265	3.13
266	3.10
267	3.06
268	3.03
269	2.99
270	2.96
271	2.92
272	2.88
273	2.84
274	2.79
275	2.75
276	2.71
277	2.66
278	2.62
279	2.57
280	2.52
281	2.47
282	2.43
283	2.38
284	2.33
285	2.28
286	2.23
287	2.18
288	2.13
289	2.07
290	2.02
291	1.97
292	1.92
293	1.87
294	1.82
295	1.77
296	1.72
297	1.67
298	1.62
299	1.58
300	1.53
301	1.48
302	1.43
303	1.39
304	1.34
305	1.30
306	1.25
307	1.21
308	1.17
309	1.12
310	1.08
311	1.04
312	1.00
313	0.96
314	0.93
315	0.89
316	0.85
317	0.82
318	0.78
319	0.75
320	0.71
321	0.68
322	0.65
323	0.62
324	0.59
325	0.56
326	0.53
327	0.50
328	0.47
329	0.45
330	0.42
331	0.39
332	0.37
333	0.35
334	0.32
335	0.30
336	0.28
337	0.26
338	0.24
339	0.22
340	0.20
341	0.18
342	0.16
343	0.15
344	0.13
345	0.12
346	0.10
347	0.09
348	0.08
349	0.07
350	0.05
351	0.05
352	0.04
353	0.03
354	0.02
355	0.02
356	0.01
357	0.01
358	0.00
359	0.00
VERTICAL 360
0	15.49
1	15.54
2	15.56
3	15.55
4	15.52
5	15.48
6	15.41
7	15.32
8	15.22
9	15.10
10	14.98
11	14.84
12	14.70
13	14.56
14	14.43
15	14.31
16	14.19
17	14.10
18	14.03
19	13.99
20	13.99
21	14.03
22	14.12
23	14.27
24	14.48
25	14.78
26	15.17
27	15.67
28	16.29
29	17.07
30	18.04
31	19.25
32	20.78
33	22.76
34	25.42
35	29.34
36	36.42
37	45.19
38	33.39
39	28.78
40	26.20
41	24.67
42	23.85
43	23.60
44	23.90
45	24.85
46	26.65
47	29.82
48	35.97
49	39.91
50	31.00
51	26.29
52	23.43
53	21.57
54	20.42
55	19.87
56	19.89
57	20.53
58	21.95
59	24.52
60	29.50
61	46.74
62	31.40
63	24.94
64	21.68
65	19.86
66	19.03
67	19.08
68	20.10
69	22.55
70	28.00
71	49.12
72	25.81
73	20.06
74	16.92
75	15.10
76	14.28
77	14.39
78	15.68
79	18.95
80	28.64
81	23.41
82	14.54
83	9.84
84	6.68
85	4.39
86	2.70
87	1.48
88	0.65
89	0.16
90	0.00
91	0.16
92	0.65
93	1.48
94	2.70
95	4.39
96	6.68
97	9.84
98	14.54
99	23.41
100	28.64
101	18.95
102	15.68
103	14.39
104	14.28
105	15.10
106	16.92
107	20.06
108	25.81
109	49.12
110	28.00
111	22.55
112	20.10
113	19.08
114	19.03
115	19.86
116	21.68
117	24.94
118	31.40
119	46.74
120	29.50
121	24.52
122	21.95
123	20.53
124	19.89
125	19.87
126	20.42
127	21.57
128	23.43
129	26.29
130	31.00
131	39.91
132	35.97
133	29.82
134	26.65
135	24.85
136	23.90
137	23.60
138	23.85
139	24.67
140	26.20
141	28.78
142	33.39
143	45.19
144	36.42
145	29.34
146	25.42
147	22.76
148	20.78
149	19.25
150	18.04
151	17.07
152	16.29
153	15.67
154	15.17
155	14.78
156	14.48
157	14.27
158	14.12
159	14.03
160	13.99
161	13.99
162	14.03
163	14.10
164	14.19
165	14.31
166	14.43
167	14.56
168	14.70
169	14.84
170	14.98
171	15.10
172	15.22
173	15.32
174	15.41
175	15.48
176	15.52
177	15.55
178	15.56
179	15.54
180	15.49
181	15.54
182	15.56
183	15.55
184	15.52
185	15.48
186	15.41
187	15.32
188	15.22
189	15.10
190	14.98
191	14.84
192	14.70
193	14.56
194	14.43
195	14.31
196	14.19
197	14.10
198	14.03
199	13.99
200	13.99
201	14.03
202	14.12
203	14.27
204	14.48
205	14.78
206	15.17
207	15.67
208	16.29
209	17.07
210	18.04
211	19.25
212	20.78
213	22.76
214	25.42
215	29.34
216	36.42
217	45.19
218	33.39
219	28.78
220	26.20
221	24.67
222	23.85
223	23.60
224	23.90
225	24.85
226	26.65
227	29.82
228	35.97
229	39.91
230	31.00
231	26.29
232	23.43
233	21.57
234	20.42
235	19.87
236	19.89
237	20.53
238	21.95
239	24.52
240	29.50
241	46.74
242	31.40
243	24.94
244	21.68
245	19.86
246	19.03
247	19.08
248	20.10
249	22.55
250	28.00
251	49.12
252	25.81
253	20.06
254	16.92
255	15.10
256	14.28
257	14.39
258	15.68
259	18.95
260	28.64
261	23.41
262	14.54
263	9.84
264	6.68
265	4.39
266	2.70
267	1.48
268	0.65
269	0.16
270	0.00
271	0.16
272	0.65
273	1.48
274	2.70
275	4.39
276	6.68
277	9.84
278	14.54
279	23.41
280	28.64
281	18.95
282	15.68
283	14.39
284	14.28
285	15.10
286	16.92
287	20.06
288	25.81
289	49.12
290	28.00
291	22.55
292	20.10
293	19.08
294	19.03
295	19.86
296	21.68
297	24.94
298	31.40
299	46.74
300	29.50
301	24.52
302	21.95
303	20.53
304	19.89
305	19.87
306	20.42
307	21.57
308	23.43
309	26.29
310	31.00
311	39.91
312	35.97
313	29.82
314	26.65
315	24.85
316	23.90
317	23.60
318	23.85
319	24.67
320	26.20
321	28.78
322	33.39
323	45.19
324	36.42
325	29.34
326	25.42
327	22.76
328	20.78
329	19.25
330	18.04
331	17.07
332	16.29
333	15.67
334	15.17
335	14.78
336	14.48
337	14.27
338	14.12
339	14.03
340	13.99
341	13.99
342	14.03
343	14.10
344	14.19
345	14.31
346	14.43
347	14.56
348	14.70
349	14.84
350	14.98
351	15.10
352	15.22
353	15.32
354	15.41
355	15.48
356	15.52
357	15.55
358	15.56
359	15.54
