NAME ASCLE-8
MAKE EFTX
FREQUENCY 635 MHz
H_WIDTH N/A
V_WIDTH 6.35
GAIN 10.8 dBd
TILT MECHANICAL
HORIZONTAL 360
0	1.0000
1	1.0000
2	0.9999
3	0.9997
4	0.9994
5	0.9990
6	0.9985
7	0.9979
8	0.9971
9	0.9963
10	0.9953
11	0.9942
12	0.9930
13	0.9918
14	0.9904
15	0.9889
16	0.9873
17	0.9856
18	0.9838
19	0.9820
20	0.9800
21	0.9779
22	0.9757
23	0.9735
24	0.9712
25	0.9687
26	0.9662
27	0.9636
28	0.9609
29	0.9581
30	0.9553
31	0.9524
32	0.9493
33	0.9463
34	0.9431
35	0.9398
36	0.9365
37	0.9331
38	0.9296
39	0.9261
40	0.9224
41	0.9187
42	0.9149
43	0.9111
44	0.9072
45	0.9032
46	0.8991
47	0.8950
48	0.8908
49	0.8865
50	0.8822
51	0.8778
52	0.8734
53	0.8689
54	0.8644
55	0.8598
56	0.8552
57	0.8505
58	0.8458
59	0.8411
60	0.8363
61	0.8315
62	0.8267
63	0.8219
64	0.8170
65	0.8122
66	0.8074
67	0.8025
68	0.7977
69	0.7929
70	0.7882
71	0.7835
72	0.7788
73	0.7741
74	0.7695
75	0.7650
76	0.7605
77	0.7562
78	0.7518
79	0.7476
80	0.7435
81	0.7394
82	0.7355
83	0.7316
84	0.7279
85	0.7243
86	0.7208
87	0.7175
88	0.7142
89	0.7112
90	0.7082
91	0.7054
92	0.7027
93	0.7002
94	0.6978
95	0.6956
96	0.6935
97	0.6916
98	0.6898
99	0.6882
100	0.6868
101	0.6855
102	0.6843
103	0.6833
104	0.6825
105	0.6818
106	0.6812
107	0.6808
108	0.6806
109	0.6804
110	0.6804
111	0.6806
112	0.6808
113	0.6812
114	0.6817
115	0.6823
116	0.6830
117	0.6838
118	0.6848
119	0.6858
120	0.6869
121	0.6881
122	0.6893
123	0.6907
124	0.6921
125	0.6935
126	0.6951
127	0.6966
128	0.6983
129	0.6999
130	0.7017
131	0.7034
132	0.7052
133	0.7070
134	0.7088
135	0.7106
136	0.7125
137	0.7143
138	0.7162
139	0.7181
140	0.7199
141	0.7218
142	0.7236
143	0.7255
144	0.7273
145	0.7291
146	0.7309
147	0.7326
148	0.7343
149	0.7360
150	0.7377
151	0.7394
152	0.7410
153	0.7425
154	0.7441
155	0.7456
156	0.7470
157	0.7484
158	0.7498
159	0.7511
160	0.7524
161	0.7536
162	0.7547
163	0.7558
164	0.7569
165	0.7579
166	0.7588
167	0.7597
168	0.7606
169	0.7613
170	0.7620
171	0.7627
172	0.7633
173	0.7638
174	0.7642
175	0.7646
176	0.7649
177	0.7651
178	0.7653
179	0.7654
180	0.7654
181	0.7654
182	0.7652
183	0.7650
184	0.7648
185	0.7644
186	0.7640
187	0.7634
188	0.7628
189	0.7622
190	0.7614
191	0.7606
192	0.7597
193	0.7587
194	0.7576
195	0.7564
196	0.7552
197	0.7539
198	0.7525
199	0.7511
200	0.7496
201	0.7480
202	0.7464
203	0.7446
204	0.7429
205	0.7410
206	0.7392
207	0.7372
208	0.7353
209	0.7333
210	0.7312
211	0.7291
212	0.7270
213	0.7249
214	0.7227
215	0.7206
216	0.7184
217	0.7162
218	0.7140
219	0.7119
220	0.7097
221	0.7076
222	0.7055
223	0.7034
224	0.7013
225	0.6993
226	0.6974
227	0.6954
228	0.6936
229	0.6918
230	0.6901
231	0.6884
232	0.6868
233	0.6853
234	0.6839
235	0.6826
236	0.6813
237	0.6802
238	0.6791
239	0.6782
240	0.6774
241	0.6767
242	0.6761
243	0.6756
244	0.6752
245	0.6749
246	0.6748
247	0.6748
248	0.6749
249	0.6752
250	0.6756
251	0.6761
252	0.6768
253	0.6775
254	0.6785
255	0.6795
256	0.6807
257	0.6820
258	0.6835
259	0.6851
260	0.6869
261	0.6887
262	0.6908
263	0.6929
264	0.6952
265	0.6976
266	0.7001
267	0.7028
268	0.7056
269	0.7085
270	0.7116
271	0.7147
272	0.7180
273	0.7214
274	0.7249
275	0.7285
276	0.7322
277	0.7360
278	0.7399
279	0.7439
280	0.7479
281	0.7521
282	0.7563
283	0.7606
284	0.7649
285	0.7693
286	0.7738
287	0.7783
288	0.7829
289	0.7875
290	0.7921
291	0.7967
292	0.8014
293	0.8061
294	0.8107
295	0.8154
296	0.8201
297	0.8248
298	0.8294
299	0.8341
300	0.8387
301	0.8433
302	0.8479
303	0.8524
304	0.8569
305	0.8613
306	0.8657
307	0.8700
308	0.8743
309	0.8786
310	0.8828
311	0.8869
312	0.8909
313	0.8949
314	0.8989
315	0.9028
316	0.9066
317	0.9103
318	0.9140
319	0.9176
320	0.9211
321	0.9246
322	0.9280
323	0.9314
324	0.9346
325	0.9378
326	0.9410
327	0.9440
328	0.9470
329	0.9500
330	0.9528
331	0.9556
332	0.9583
333	0.9610
334	0.9635
335	0.9660
336	0.9685
337	0.9708
338	0.9731
339	0.9753
340	0.9774
341	0.9794
342	0.9813
343	0.9832
344	0.9850
345	0.9867
346	0.9882
347	0.9897
348	0.9911
349	0.9924
350	0.9937
351	0.9948
352	0.9958
353	0.9967
354	0.9975
355	0.9981
356	0.9987
357	0.9992
358	0.9996
359	0.9998
VERTICAL 360
0	0.0845
1	0.0851
2	0.0858
3	0.0866
4	0.0874
5	0.0884
6	0.0893
7	0.0904
8	0.0915
9	0.0926
10	0.0938
11	0.0950
12	0.0963
13	0.0976
14	0.0989
15	0.1002
16	0.1016
17	0.1029
18	0.1042
19	0.1054
20	0.1067
21	0.1079
22	0.1090
23	0.1100
24	0.1110
25	0.1118
26	0.1125
27	0.1131
28	0.1135
29	0.1138
30	0.1139
31	0.1137
32	0.1133
33	0.1127
34	0.1118
35	0.1107
36	0.1092
37	0.1074
38	0.1053
39	0.1028
40	0.1000
41	0.0968
42	0.0932
43	0.0892
44	0.0849
45	0.0801
46	0.0750
47	0.0695
48	0.0637
49	0.0575
50	0.0510
51	0.0442
52	0.0372
53	0.0300
54	0.0228
55	0.0158
56	0.0098
57	0.0080
58	0.0122
59	0.0187
60	0.0256
61	0.0325
62	0.0391
63	0.0453
64	0.0510
65	0.0561
66	0.0605
67	0.0642
68	0.0671
69	0.0691
70	0.0701
71	0.0702
72	0.0692
73	0.0672
74	0.0642
75	0.0602
76	0.0552
77	0.0493
78	0.0426
79	0.0352
80	0.0275
81	0.0197
82	0.0131
83	0.0111
84	0.0158
85	0.0233
86	0.0314
87	0.0392
88	0.0464
89	0.0527
90	0.0578
91	0.0617
92	0.0642
93	0.0650
94	0.0643
95	0.0618
96	0.0576
97	0.0518
98	0.0444
99	0.0357
100	0.0257
101	0.0147
102	0.0039
103	0.0100
104	0.0221
105	0.0341
106	0.0456
107	0.0560
108	0.0651
109	0.0725
110	0.0779
111	0.0811
112	0.0818
113	0.0800
114	0.0756
115	0.0687
116	0.0593
117	0.0477
118	0.0342
119	0.0193
120	0.0036
121	0.0134
122	0.0298
123	0.0456
124	0.0600
125	0.0726
126	0.0827
127	0.0899
128	0.0937
129	0.0939
130	0.0902
131	0.0827
132	0.0714
133	0.0565
134	0.0387
135	0.0183
136	0.0044
137	0.0271
138	0.0503
139	0.0725
140	0.0928
141	0.1102
142	0.1238
143	0.1327
144	0.1364
145	0.1344
146	0.1263
147	0.1123
148	0.0925
149	0.0680
150	0.0408
151	0.0232
152	0.0435
153	0.0778
154	0.1135
155	0.1476
156	0.1779
157	0.2027
158	0.2202
159	0.2291
160	0.2281
161	0.2162
162	0.1930
163	0.1584
164	0.1137
165	0.0647
166	0.0535
167	0.1144
168	0.1965
169	0.2867
170	0.3811
171	0.4769
172	0.5714
173	0.6619
174	0.7459
175	0.8209
176	0.8850
177	0.9362
178	0.9730
179	0.9944
180	0.9998
181	0.9889
182	0.9621
183	0.9202
184	0.8644
185	0.7963
186	0.7178
187	0.6313
188	0.5390
189	0.4435
190	0.3473
191	0.2531
192	0.1634
193	0.0814
194	0.0266
195	0.0709
196	0.1244
197	0.1680
198	0.2000
199	0.2203
200	0.2293
201	0.2276
202	0.2163
203	0.1968
204	0.1704
205	0.1390
206	0.1042
207	0.0681
208	0.0333
209	0.0177
210	0.0428
211	0.0705
212	0.0942
213	0.1127
214	0.1253
215	0.1320
216	0.1327
217	0.1279
218	0.1179
219	0.1036
220	0.0857
221	0.0652
222	0.0430
223	0.0202
224	0.0036
225	0.0243
226	0.0438
227	0.0608
228	0.0748
229	0.0852
230	0.0918
231	0.0947
232	0.0938
233	0.0895
234	0.0819
235	0.0715
236	0.0589
237	0.0446
238	0.0293
239	0.0139
240	0.0061
241	0.0191
242	0.0330
243	0.0455
244	0.0562
245	0.0647
246	0.0708
247	0.0745
248	0.0756
249	0.0744
250	0.0709
251	0.0653
252	0.0579
253	0.0491
254	0.0391
255	0.0283
256	0.0171
257	0.0059
258	0.0059
259	0.0163
260	0.0260
261	0.0346
262	0.0421
263	0.0481
264	0.0527
265	0.0557
266	0.0571
267	0.0571
268	0.0555
269	0.0527
270	0.0487
271	0.0436
272	0.0378
273	0.0314
274	0.0248
275	0.0185
276	0.0138
277	0.0129
278	0.0161
279	0.0215
280	0.0273
281	0.0330
282	0.0382
283	0.0428
284	0.0467
285	0.0497
286	0.0519
287	0.0532
288	0.0537
289	0.0534
290	0.0523
291	0.0505
292	0.0480
293	0.0450
294	0.0415
295	0.0375
296	0.0332
297	0.0286
298	0.0239
299	0.0191
300	0.0144
301	0.0101
302	0.0068
303	0.0062
304	0.0086
305	0.0122
306	0.0160
307	0.0196
308	0.0230
309	0.0261
310	0.0289
311	0.0314
312	0.0335
313	0.0352
314	0.0367
315	0.0378
316	0.0386
317	0.0390
318	0.0392
319	0.0392
320	0.0389
321	0.0383
322	0.0376
323	0.0368
324	0.0358
325	0.0347
326	0.0336
327	0.0325
328	0.0314
329	0.0304
330	0.0295
331	0.0288
332	0.0283
333	0.0281
334	0.0281
335	0.0284
336	0.0290
337	0.0299
338	0.0311
339	0.0324
340	0.0340
341	0.0358
342	0.0377
343	0.0398
344	0.0419
345	0.0442
346	0.0465
347	0.0488
348	0.0512
349	0.0537
350	0.0562
351	0.0587
352	0.0612
353	0.0638
354	0.0663
355	0.0689
356	0.0715
357	0.0741
358	0.0768
359	0.0794
